Wavelength (nm);Intensity Source
341.676;3.931
342.058;3.979
342.440;3.979
342.822;4.004
343.204;4.028
343.586;4.053
343.968;4.004
344.350;3.955
344.732;3.979
345.114;4.004
345.495;4.028
345.877;3.979
346.259;3.979
346.640;4.028
347.022;3.979
347.403;3.931
347.785;3.906
348.166;3.882
348.548;3.906
348.929;4.004
349.311;4.004
349.692;3.931
350.073;3.906
350.454;3.882
350.836;3.882
351.217;3.931
351.598;3.931
351.979;3.906
352.360;3.906
352.741;3.906
353.122;4.004
353.503;4.053
353.884;4.053
354.265;4.053
354.645;4.004
355.026;3.931
355.407;3.955
355.787;3.979
356.168;3.979
356.549;3.979
356.929;3.979
357.310;4.028
357.690;4.126
358.071;4.126
358.451;4.028
358.831;4.004
359.212;4.004
359.592;4.028
359.972;3.979
360.352;3.955
360.732;3.979
361.113;4.053
361.493;4.077
361.873;4.028
362.253;4.028
362.632;4.102
363.012;4.126
363.392;4.102
363.772;4.126
364.152;4.126
364.532;4.126
364.911;4.150
365.291;4.077
365.670;4.004
366.050;4.028
366.430;4.053
366.809;4.053
367.188;4.053
367.568;4.102
367.947;4.150
368.327;4.102
368.706;4.102
369.085;4.126
369.464;4.175
369.843;4.126
370.223;4.175
370.602;4.199
370.981;4.199
371.360;4.224
371.739;4.321
372.118;4.443
372.496;4.419
372.875;4.395
373.254;4.370
373.633;4.346
374.011;4.346
374.390;4.370
374.769;4.443
375.147;4.492
375.526;4.492
375.904;4.541
376.283;4.663
376.661;4.614
377.040;4.517
377.418;4.565
377.796;4.590
378.175;4.541
378.553;4.565
378.931;4.614
379.309;4.590
379.687;4.468
380.065;4.395
380.443;4.395
380.821;4.419
381.199;4.346
381.577;4.297
381.955;4.370
382.333;4.419
382.710;4.395
383.088;4.346
383.466;4.419
383.843;4.468
384.221;4.346
384.599;4.321
384.976;4.346
385.353;4.272
385.731;4.272
386.108;4.297
386.486;4.321
386.863;4.272
387.240;4.248
387.617;4.248
387.995;4.272
388.372;4.272
388.749;4.248
389.126;4.199
389.503;4.102
389.880;4.150
390.257;4.248
390.634;4.224
391.011;4.150
391.387;4.150
391.764;4.297
392.141;4.346
392.518;4.248
392.894;4.224
393.271;4.272
393.647;4.297
394.024;4.346
394.400;4.297
394.777;4.199
395.153;4.102
395.530;4.150
395.906;4.150
396.282;4.126
396.658;4.126
397.034;4.150
397.411;4.199
397.787;4.199
398.163;4.175
398.539;4.175
398.915;4.150
399.291;4.150
399.667;4.175
400.042;4.126
400.418;4.102
400.794;4.150
401.170;4.175
401.545;4.150
401.921;4.224
402.297;4.248
402.672;4.297
403.048;4.321
403.423;4.272
403.799;4.248
404.174;4.224
404.549;4.199
404.925;4.199
405.300;4.199
405.675;4.199
406.050;4.175
406.426;4.199
406.801;4.199
407.176;4.175
407.551;4.224
407.926;4.224
408.301;4.150
408.676;4.126
409.050;4.150
409.425;4.224
409.800;4.224
410.175;4.199
410.549;4.150
410.924;4.126
411.299;4.175
411.673;4.126
412.048;4.077
412.422;4.126
412.797;4.199
413.171;4.199
413.545;4.199
413.920;4.248
414.294;4.272
414.668;4.199
415.042;4.199
415.416;4.224
415.790;4.321
416.164;4.297
416.538;4.248
416.912;4.199
417.286;4.224
417.660;4.272
418.034;4.297
418.408;4.224
418.782;4.175
419.155;4.272
419.529;4.224
419.903;4.199
420.276;4.272
420.650;4.321
421.023;4.272
421.397;4.248
421.770;4.248
422.144;4.199
422.517;4.150
422.890;4.077
423.263;4.102
423.637;4.175
424.010;4.297
424.383;4.492
424.756;4.468
425.129;4.443
425.502;4.492
425.875;4.541
426.248;4.443
426.621;4.346
426.994;4.272
427.366;4.199
427.739;4.224
428.112;4.224
428.484;4.150
428.857;4.272
429.230;4.346
429.602;4.248
429.975;4.199
430.347;4.126
430.719;4.150
431.092;4.272
431.464;4.395
431.836;4.468
432.209;4.419
432.581;4.346
432.953;4.370
433.325;4.419
433.697;4.321
434.069;4.395
434.441;4.395
434.813;4.297
435.185;4.272
435.557;4.272
435.929;4.248
436.300;4.224
436.672;4.199
437.044;4.248
437.415;4.321
437.787;4.297
438.159;4.272
438.530;4.370
438.902;4.419
439.273;4.346
439.644;4.297
440.016;4.297
440.387;4.272
440.758;4.272
441.129;4.297
441.501;4.272
441.872;4.248
442.243;4.224
442.614;4.370
442.985;4.492
443.356;4.419
443.727;4.346
444.098;4.248
444.468;4.150
444.839;4.102
445.210;4.126
445.581;4.126
445.951;4.175
446.322;4.321
446.692;4.346
447.063;4.346
447.433;4.297
447.804;4.346
448.174;4.346
448.545;4.272
448.915;4.272
449.285;4.297
449.655;4.321
450.026;4.321
450.396;4.346
450.766;4.395
451.136;4.419
451.506;4.395
451.876;4.297
452.246;4.297
452.616;4.346
452.985;4.468
453.355;4.419
453.725;4.419
454.095;4.443
454.464;4.419
454.834;4.395
455.204;4.370
455.573;4.443
455.943;4.419
456.312;4.297
456.681;4.199
457.051;4.175
457.420;4.175
457.789;4.224
458.159;4.175
458.528;4.199
458.897;4.224
459.266;4.248
459.635;4.199
460.004;4.126
460.373;4.150
460.742;4.175
461.111;4.175
461.480;4.199
461.849;4.199
462.217;4.321
462.586;4.321
462.955;4.272
463.323;4.272
463.692;4.297
464.060;4.272
464.429;4.272
464.797;4.297
465.166;4.272
465.534;4.199
465.903;4.224
466.271;4.272
466.639;4.248
467.007;4.248
467.375;4.199
467.744;4.150
468.112;4.175
468.480;4.224
468.848;4.297
469.216;4.199
469.583;4.150
469.951;4.150
470.319;4.199
470.687;4.248
471.055;4.248
471.422;4.248
471.790;4.248
472.157;4.248
472.525;4.297
472.892;4.346
473.260;4.297
473.627;4.321
473.995;4.346
474.362;4.272
474.729;4.199
475.097;4.150
475.464;4.150
475.831;4.199
476.198;4.272
476.565;4.321
476.932;4.370
477.299;4.297
477.666;4.272
478.033;4.297
478.400;4.321
478.767;4.297
479.133;4.248
479.500;4.224
479.867;4.346
480.233;4.492
480.600;4.468
480.966;4.395
481.333;4.370
481.699;4.321
482.066;4.297
482.432;4.272
482.798;4.297
483.165;4.346
483.531;4.346
483.897;4.297
484.263;4.297
484.629;4.297
484.996;4.297
485.362;4.370
485.727;4.395
486.093;4.443
486.459;4.443
486.825;4.395
487.191;4.370
487.557;4.395
487.922;4.346
488.288;4.248
488.654;4.272
489.019;4.272
489.385;4.321
489.750;4.370
490.116;4.370
490.481;4.346
490.846;4.297
491.212;4.395
491.577;4.468
491.942;4.419
492.307;4.419
492.673;4.419
493.038;4.419
493.403;4.468
493.768;4.517
494.133;4.517
494.498;4.492
494.862;4.419
495.227;4.468
495.592;4.492
495.957;4.395
496.322;4.370
496.686;4.492
497.051;4.639
497.415;4.687
497.780;4.736
498.144;4.736
498.509;4.663
498.873;4.639
499.238;4.614
499.602;4.736
499.966;4.712
500.330;4.736
500.694;4.712
501.059;4.712
501.423;4.858
501.787;4.883
502.151;4.932
502.515;4.956
502.879;5.005
503.242;5.054
503.606;5.225
503.970;5.054
504.334;5.151
504.697;5.151
505.061;5.029
505.425;5.127
505.788;5.200
506.152;5.273
506.515;5.469
506.878;5.347
507.242;5.444
507.605;5.518
507.968;5.688
508.332;5.811
508.695;5.786
509.058;5.859
509.421;5.908
509.784;5.908
510.147;6.030
510.510;6.396
510.873;6.323
511.236;6.299
511.599;6.519
511.962;6.592
512.324;6.616
512.687;6.738
513.050;6.860
513.412;7.080
513.775;7.446
514.137;7.300
514.500;7.544
514.862;7.715
515.225;7.983
515.587;8.081
515.949;8.545
516.312;8.545
516.674;8.789
517.036;9.375
517.398;9.644
517.760;9.741
518.122;10.205
518.484;10.327
518.846;10.840
519.208;10.840
519.570;11.035
519.932;11.572
520.293;12.256
520.655;12.036
521.017;13.232
521.379;13.232
521.740;13.770
522.102;14.624
522.463;14.648
522.825;15.479
523.186;15.967
523.547;16.187
523.909;16.724
524.270;18.091
524.631;18.848
524.992;19.189
525.353;20.068
525.715;21.118
526.076;21.021
526.437;21.460
526.798;22.632
527.159;22.998
527.519;24.707
527.880;25.537
528.241;26.147
528.602;26.709
528.962;27.808
529.323;29.541
529.684;30.151
530.044;30.542
530.405;31.104
530.765;32.690
531.126;33.594
531.486;34.717
531.846;36.572
532.207;37.402
532.567;38.257
532.927;39.185
533.287;40.845
533.647;40.527
534.007;42.529
534.367;42.896
534.727;44.971
535.087;46.094
535.447;47.217
535.807;48.218
536.167;48.926
536.526;49.536
536.886;49.878
537.246;51.318
537.605;52.661
537.965;53.076
538.324;54.370
538.684;55.176
539.043;56.274
539.403;56.372
539.762;57.129
540.121;58.862
540.481;59.106
540.840;58.862
541.199;59.668
541.558;61.279
541.917;60.376
542.276;60.767
542.635;61.548
542.994;62.109
543.353;60.522
543.712;61.743
544.071;61.450
544.429;62.231
544.788;61.279
545.147;61.377
545.505;61.621
545.864;60.889
546.222;60.864
546.581;61.133
546.939;60.376
547.298;58.862
547.656;58.618
548.014;57.764
548.373;57.861
548.731;55.176
549.089;56.519
549.447;55.054
549.805;54.272
550.163;53.418
550.521;52.197
550.879;51.685
551.237;50.244
551.595;49.976
551.953;48.901
552.310;46.704
552.668;45.361
553.026;45.264
553.383;44.141
553.741;44.360
554.098;42.285
554.456;40.552
554.813;40.381
555.171;39.160
555.528;38.477
555.885;37.549
556.242;36.230
556.600;35.132
556.957;34.521
557.314;33.398
557.671;32.544
558.028;31.714
558.385;31.226
558.742;29.736
559.099;29.199
559.456;27.515
559.812;26.855
560.169;25.830
560.526;25.781
560.883;24.902
561.239;23.633
561.596;22.949
561.952;22.021
562.309;21.509
562.665;20.825
563.021;19.678
563.378;19.287
563.734;19.092
564.090;18.286
564.447;17.627
564.803;17.627
565.159;16.772
565.515;15.918
565.871;15.186
566.227;15.088
566.583;14.355
566.939;13.892
567.294;14.282
567.650;13.428
568.006;13.647
568.362;12.451
568.717;12.036
569.073;11.328
569.428;10.889
569.784;10.742
570.139;10.498
570.495;10.156
570.850;9.863
571.205;9.961
571.561;9.253
571.916;9.058
572.271;9.131
572.626;8.667
572.981;8.789
573.336;8.301
573.691;8.423
574.046;7.837
574.401;7.812
574.756;7.739
575.111;7.422
575.466;7.178
575.820;6.934
576.175;6.934
576.530;7.007
576.884;6.689
577.239;6.543
577.593;6.470
577.948;6.641
578.302;6.396
578.656;6.372
579.011;6.128
579.365;5.908
579.719;5.859
580.073;5.640
580.428;5.737
580.782;5.811
581.136;5.664
581.490;5.469
581.844;5.322
582.197;5.273
582.551;5.298
582.905;5.249
583.259;5.225
583.613;5.273
583.966;5.225
584.320;5.176
584.673;5.176
585.027;5.176
585.380;4.932
585.734;4.785
586.087;4.736
586.440;4.639
586.794;4.687
587.147;4.663
587.500;4.712
587.853;4.761
588.206;4.687
588.559;4.663
588.913;4.687
589.265;4.663
589.618;4.663
589.971;4.639
590.324;4.639
590.677;4.663
591.030;4.541
591.382;4.419
591.735;4.395
592.087;4.419
592.440;4.492
592.792;4.443
593.145;4.395
593.497;4.443
593.850;4.517
594.202;4.541
594.554;4.468
594.906;4.419
595.259;4.468
595.611;4.370
595.963;4.321
596.315;4.321
596.667;4.370
597.019;4.346
597.371;4.346
597.723;4.395
598.074;4.370
598.426;4.321
598.778;4.395
599.129;4.395
599.481;4.346
599.833;4.297
600.184;4.224
600.536;4.175
600.887;4.248
601.238;4.248
601.590;4.224
601.941;4.297
602.292;4.321
602.643;4.272
602.994;4.175
603.346;4.102
603.697;4.150
604.048;4.224
604.399;4.272
604.749;4.248
605.100;4.150
605.451;4.126
605.802;4.150
606.153;4.102
606.503;4.077
606.854;4.126
607.204;4.224
607.555;4.175
607.905;4.126
608.256;4.175
608.606;4.248
608.957;4.199
609.307;4.199
609.657;4.297
610.007;4.272
610.358;4.248
610.708;4.224
611.058;4.199
611.408;4.175
611.758;4.224
612.108;4.199
612.457;4.175
612.807;4.150
613.157;4.077
613.507;4.028
613.856;4.077
614.206;4.126
614.556;4.199
614.905;4.224
615.255;4.199
615.604;4.248
615.954;4.248
616.303;4.248
616.652;4.272
617.001;4.199
617.351;4.150
617.700;4.199
618.049;4.150
618.398;4.053
618.747;4.102
619.096;4.126
619.445;4.199
619.794;4.175
620.143;4.126
620.491;4.102
620.840;4.102
621.189;4.126
621.537;4.126
621.886;4.077
622.235;4.053
622.583;4.175
622.932;4.248
623.280;4.199
623.628;4.175
623.977;4.199
624.325;4.272
624.673;4.297
625.021;4.224
625.369;4.102
625.717;4.053
626.065;4.126
626.413;4.175
626.761;4.199
627.109;4.248
627.457;4.175
627.805;4.150
628.153;4.126
628.500;4.102
628.848;4.102
629.196;4.053
629.543;4.028
629.891;4.077
630.238;4.102
630.585;4.150
630.933;4.077
631.280;3.857
631.627;3.760
631.975;3.931
632.322;4.004
632.669;4.004
633.016;4.077
633.363;4.150
633.710;4.199
634.057;4.224
634.404;4.224
634.751;4.224
635.097;4.224
635.444;4.175
635.791;4.175
636.137;4.224
636.484;4.199
636.831;4.150
637.177;4.102
637.524;4.053
637.870;4.028
638.216;4.077
638.563;4.126
638.909;4.102
639.255;4.126
639.601;4.150
639.947;4.175
640.293;4.224
640.639;4.224
640.985;4.224
641.331;4.150
641.677;4.126
642.023;4.150
642.369;4.126
642.715;4.150
643.060;4.199
643.406;4.224
643.751;4.248
644.097;4.248
644.442;4.199
644.788;4.175
645.133;4.150
645.479;4.199
645.824;4.199
646.169;4.150
646.514;4.175
646.860;4.248
647.205;4.272
647.550;4.248
647.895;4.248
648.240;4.248
648.585;4.199
648.930;4.175
649.274;4.175
649.619;4.126
649.964;4.102
650.309;4.102
650.653;4.126
650.998;4.126
651.342;4.102
651.687;4.102
652.031;4.150
652.376;4.175
652.720;4.175
653.064;4.150
653.408;4.126
653.753;4.126
654.097;4.150
654.441;4.199
654.785;4.224
655.129;4.248
655.473;4.224
655.817;4.150
656.161;4.126
656.504;4.175
656.848;4.199
657.192;4.150
657.536;4.102
657.879;4.126
658.223;4.199
658.566;4.224
658.910;4.224
659.253;4.248
659.597;4.224
659.940;4.150
660.283;4.126
660.626;4.126
660.970;4.126
661.313;4.077
661.656;4.053
661.999;4.028
662.342;4.077
662.685;4.102
663.028;4.102
663.370;4.126
663.713;4.102
664.056;4.077
664.399;4.102
664.741;4.150
665.084;4.199
665.426;4.126
665.769;4.102
666.111;4.126
666.454;4.150
666.796;4.150
667.138;4.077
667.481;4.126
667.823;4.150
668.165;4.077
668.507;4.077
668.849;4.126
669.191;4.126
669.533;4.126
669.875;4.102
670.217;4.077
670.559;4.077
670.901;4.053
671.242;4.053
671.584;4.126
671.926;4.150
672.267;4.175
672.609;4.175
672.950;4.224
673.292;4.199
673.633;4.175
673.974;4.175
674.316;4.175
674.657;4.175
674.998;4.150
675.339;4.175
675.680;4.224
676.021;4.248
676.362;4.272
676.703;4.199
677.044;4.150
677.385;4.126
677.726;4.077
678.067;4.053
678.407;4.053
678.748;4.175
679.088;4.175
679.429;4.150
679.770;4.150
680.110;4.126
680.450;4.126
680.791;4.126
681.131;4.150
681.471;4.150
681.811;4.077
682.152;4.028
682.492;4.028
682.832;4.053
683.172;4.150
683.512;4.126
683.852;4.028
684.192;4.028
684.531;4.053
684.871;4.028
685.211;4.077
685.551;4.102
685.890;4.102
686.230;4.175
686.569;4.199
686.909;4.150
687.248;4.102
687.588;4.150
687.927;4.248
688.266;4.199
688.605;4.077
688.945;4.028
689.284;4.028
689.623;4.028
689.962;4.028
690.301;4.053
690.640;4.053
690.979;4.077
691.317;4.102
691.656;4.102
691.995;4.102
692.334;4.199
692.672;4.199
693.011;4.126
693.349;4.102
693.688;4.077
694.026;4.053
694.365;4.004
694.703;4.077
695.041;4.102
695.379;4.028
695.718;4.028
696.056;4.004
696.394;4.053
696.732;4.077
697.070;4.053
697.408;4.102
697.746;4.077
698.084;4.102
698.421;4.126
698.759;4.053
699.097;4.004
699.435;4.028
699.772;4.126
700.110;4.053
700.447;4.004
700.785;4.004
701.122;4.053
701.459;4.126
701.797;4.102
702.134;4.102
702.471;4.150
702.808;4.102
703.145;4.102
703.482;4.102
703.819;4.175
704.156;4.272
704.493;4.224
704.830;4.199
705.167;4.150
705.504;4.053
705.840;4.053
706.177;4.175
706.514;4.224
706.850;4.224
707.187;4.175
707.523;4.053
707.860;4.028
708.196;4.077
708.532;4.053
708.868;4.053
709.205;4.126
709.541;4.175
709.877;4.150
710.213;4.150
710.549;4.199
710.885;4.150
711.221;4.150
711.557;4.199
711.893;4.102
712.228;4.004
712.564;4.053
712.900;4.272
713.235;4.370
713.571;4.297
713.906;4.248
714.242;4.175
714.577;4.150
714.913;4.126
715.248;4.150
715.583;4.175
715.918;4.175
716.254;4.150
716.589;4.102
716.924;4.077
717.259;4.126
717.594;4.102
717.929;4.053
718.263;4.077
718.598;4.053
718.933;4.053
719.268;4.102
719.602;4.102
719.937;4.077
720.272;4.053
720.606;4.102
720.941;4.126
721.275;4.077
721.609;4.150
721.944;4.199
722.278;4.199
722.612;4.199
722.946;4.150
723.280;4.102
723.614;4.126
723.948;4.175
724.282;4.248
724.616;4.321
724.950;4.248
725.284;4.175
725.618;4.102
725.951;4.150
726.285;4.248
726.619;4.272
726.952;4.199
727.286;4.150
727.619;4.175
727.953;4.126
728.286;4.102
728.619;4.126
728.953;4.077
729.286;4.053
729.619;4.102
729.952;4.102
730.285;4.126
730.618;4.053
730.951;4.175
731.284;4.321
731.617;4.224
731.950;4.150
732.282;4.175
732.615;4.199
732.948;4.175
733.280;4.199
733.613;4.224
733.945;4.224
734.278;4.175
734.610;4.126
734.942;4.102
735.275;4.077
735.607;4.102
735.939;4.053
736.271;4.053
736.603;4.126
736.936;4.199
737.268;4.199
737.599;4.175
737.931;4.175
738.263;4.175
738.595;4.126
738.927;4.102
739.258;4.126
739.590;4.028
739.922;3.955
740.253;4.004
740.585;4.248
740.916;4.321
741.248;4.297
741.579;4.297
741.910;4.126
742.241;4.028
742.573;4.028
742.904;4.004
743.235;4.077
743.566;4.126
743.897;4.150
744.228;4.150
744.559;4.175
744.889;4.199
745.220;4.175
745.551;4.150
745.882;4.248
746.212;4.199
746.543;4.175
746.873;4.126
747.204;4.077
747.534;4.028
747.865;4.077
748.195;4.077
748.525;4.053
748.855;4.053
749.186;4.004
749.516;4.028
749.846;4.077
750.176;4.077
750.506;4.077
750.836;4.077
751.166;4.102
751.495;4.028
751.825;4.028
752.155;4.077
752.484;4.175
752.814;4.199
753.144;4.175
753.473;4.224
753.803;4.150
754.132;4.102
754.461;4.102
754.791;4.126
755.120;4.175
755.449;4.175
755.778;4.102
756.107;4.102
756.436;4.053
756.765;4.102
757.094;4.150
757.423;4.150
757.752;4.150
758.081;4.102
758.410;4.077
758.738;4.102
759.067;4.150
759.396;4.150
759.724;4.126
760.053;4.126
760.381;4.150
760.709;4.248
761.038;4.297
761.366;4.248
761.694;4.175
762.022;4.175
762.351;4.126
762.679;4.077
763.007;4.077
763.335;4.126
763.663;4.126
763.990;4.102
764.318;4.102
764.646;4.102
764.974;4.126
765.301;4.126
765.629;4.175
765.957;4.199
766.284;4.150
766.612;4.126
766.939;4.102
767.266;4.102
767.594;4.053
767.921;4.028
768.248;4.004
768.575;4.028
768.902;4.077
769.229;4.102
769.556;4.224
769.883;4.321
770.210;4.224
770.537;4.053
770.864;4.028
771.191;4.126
771.517;4.175
771.844;4.199
772.171;4.199
772.497;4.199
772.824;4.126
773.150;4.102
773.476;4.102
773.803;4.077
774.129;4.102
774.455;4.150
774.781;4.175
775.107;4.028
775.434;3.931
775.760;3.955
776.086;3.979
776.411;4.028
776.737;4.077
777.063;4.102
777.389;4.102
777.715;4.077
778.040;4.077
778.366;4.077
778.691;4.077
779.017;4.053
779.342;4.102
779.668;4.102
779.993;4.053
780.318;4.004
780.644;4.004
780.969;3.955
781.294;4.077
781.619;4.175
781.944;4.126
782.269;4.126
782.594;4.150
782.919;4.150
783.244;4.102
783.568;4.028
783.893;4.004
784.218;4.053
784.542;4.077
784.867;4.053
785.192;4.028
785.516;3.979
785.840;3.955
786.165;4.004
786.489;4.028
786.813;4.028
787.138;4.102
787.462;4.199
787.786;4.272
788.110;4.395
788.434;4.419
788.758;4.346
789.082;4.321
789.406;4.224
789.729;4.150
790.053;4.077
790.377;4.053
790.700;4.077
791.024;4.028
791.348;4.004
791.671;4.004
791.994;4.053
792.318;4.175
792.641;4.199
792.964;4.150
793.288;4.102
793.611;4.053
793.934;4.004
794.257;4.053
794.580;4.102
794.903;4.053
795.226;4.028
795.549;4.004
795.871;4.028
796.194;4.077
796.517;4.102
796.840;4.102
797.162;4.077
797.485;4.053
797.807;4.199
798.130;4.272
798.452;4.224
798.774;4.175
799.097;4.053
799.419;4.053
799.741;4.102
800.063;4.175
800.385;4.150
800.707;4.077
801.029;4.028
801.351;3.979
801.673;3.955
801.995;3.955
802.317;4.028
802.638;4.077
802.960;4.102
803.281;4.126
803.603;4.224
803.924;4.199
804.246;4.077
804.567;4.053
804.889;4.028
805.210;4.004
805.531;3.979
805.852;4.102
806.173;4.224
806.495;4.175
806.816;4.102
807.137;4.077
807.457;4.126
807.778;4.126
808.099;4.126
808.420;4.126
808.741;4.150
809.061;4.150
809.382;4.077
809.702;4.077
810.023;4.077
810.343;4.102
810.664;4.126
810.984;4.102
811.304;4.077
811.625;4.102
811.945;4.102
812.265;4.150
812.585;4.199
812.905;4.199
813.225;4.199
813.545;4.126
813.865;4.126
814.184;4.102
814.504;4.077
814.824;4.053
815.144;4.053
815.463;4.126
815.783;4.102
816.102;4.102
816.422;4.126
816.741;4.126
817.060;4.077
817.380;4.077
817.699;4.126
818.018;4.150
818.337;4.053
818.656;4.053
818.975;4.077
819.294;4.102
819.613;4.077
819.932;4.077
820.251;4.126
820.570;4.102
820.888;4.028
821.207;4.053
821.526;4.077
821.844;4.077
822.163;4.150
822.481;4.175
822.799;4.077
823.118;4.053
823.436;4.077
823.754;4.077
824.072;4.126
824.390;4.126
824.709;4.150
825.027;4.150
825.345;4.150
825.662;4.102
825.980;4.102
826.298;4.077
826.616;4.028
826.934;4.028
827.251;4.004
827.569;3.955
827.886;3.931
828.204;3.955
828.521;3.979
828.839;3.979
829.156;3.979
829.473;3.979
829.790;4.004
830.108;4.077
830.425;4.077
830.742;4.053
831.059;4.053
831.376;4.077
831.693;4.077
832.009;4.102
832.326;4.102
832.643;4.102
832.960;4.126
833.276;4.126
833.593;4.126
833.909;4.126
834.226;4.150
834.542;4.126
834.859;4.102
835.175;4.028
835.491;4.053
835.807;4.077
836.123;4.102
836.440;4.126
836.756;4.102
837.072;4.102
837.388;4.102
837.703;4.126
838.019;4.102
838.335;4.077
838.651;4.150
838.966;4.224
839.282;4.199
839.598;4.199
839.913;4.199
840.229;4.126
840.544;4.102
840.859;4.175
841.175;4.175
841.490;4.150
841.805;4.102
842.120;4.077
842.435;4.126
842.750;4.077
843.065;4.028
843.380;3.979
843.695;4.004
844.010;4.053
844.325;4.028
844.639;4.053
844.954;4.102
845.269;4.102
845.583;4.053
845.898;4.028
846.212;4.053
846.526;4.028
846.841;4.028
847.155;4.102
847.469;4.150
847.783;4.175
848.097;6.177
848.412;5.469
848.726;4.565
849.039;4.272
849.353;4.175
849.667;4.150
849.981;4.102
850.295;4.028
850.608;3.955
850.922;3.906
851.236;3.906
851.549;3.931
851.863;3.979
852.176;4.028
852.489;4.077
852.803;4.102
853.116;4.077
853.429;4.077
853.742;4.102
854.055;4.126
854.368;4.077
854.681;4.053
854.994;4.004
855.307;3.955
855.620;3.955
855.933;3.979
856.246;3.955
856.558;3.979
856.871;4.028
857.183;4.077
857.496;4.028
857.808;4.077
858.121;4.077
858.433;4.102
858.745;4.150
859.058;4.126
859.370;4.077
859.682;4.053
859.994;4.077
860.306;4.102
860.618;4.126
860.930;4.053
861.242;4.028
861.553;4.004
861.865;3.979
862.177;4.004
862.488;3.979
862.800;4.004
863.112;4.053
863.423;4.077
863.734;4.126
864.046;4.126
864.357;4.175
864.668;4.224
864.980;4.126
865.291;4.077
865.602;4.150
865.913;4.175
866.224;4.199
866.535;4.126
866.846;4.102
867.156;4.126
867.467;4.224
867.778;4.248
868.089;4.175
868.399;4.150
868.710;4.199
869.020;4.175
869.331;4.077
869.641;4.028
869.951;4.028
870.262;4.102
870.572;4.150
870.882;4.053
871.192;3.979
871.502;3.955
871.812;4.028
872.122;4.028
872.432;4.053
872.742;4.077
873.052;4.028
873.361;4.028
873.671;4.150
873.981;4.248
874.290;4.224
874.600;4.224
874.909;4.175
875.219;4.102
875.528;4.077
875.837;4.126
876.147;4.126
876.456;4.126
876.765;4.077
877.074;4.028
877.383;4.028
877.692;4.004
878.001;4.028
878.310;4.053
878.619;4.053
878.927;4.053
879.236;4.053
879.545;4.077
879.853;4.126
880.162;4.102
880.470;4.053
880.779;4.028
881.087;3.979
881.395;3.979
881.704;3.931
882.012;3.906
882.320;3.979
882.628;4.028
882.936;4.028
883.244;4.028
883.552;4.224
883.860;4.272
884.168;4.126
884.475;4.102
884.783;4.077
885.091;4.028
885.398;4.028
885.706;4.053
886.013;4.077
886.321;4.102
886.628;4.053
886.936;3.955
887.243;3.931
887.550;3.955
887.857;3.955
888.164;3.979
888.471;4.126
888.778;4.150
889.085;4.077
889.392;4.053
889.699;4.053
890.006;4.175
890.312;4.272
890.619;4.224
890.926;4.150
891.232;4.077
891.539;4.077
891.845;4.126
892.152;4.028
892.458;3.979
892.764;4.004
893.070;4.028
893.377;4.004
893.683;4.028
893.989;4.028
894.295;4.053
894.601;4.053
894.907;4.053
895.213;4.028
895.518;4.004
895.824;4.028
896.130;4.077
896.435;4.150
896.741;4.150
897.046;4.199
897.352;4.150
897.657;4.077
897.963;4.004
898.268;4.004
898.573;4.077
898.878;4.077
899.183;4.077
899.488;4.028
899.793;4.004
900.098;4.028
900.403;4.004
900.708;4.077
901.013;4.126
901.318;4.126
901.622;4.126
901.927;4.102
902.232;4.028
902.536;4.028
902.841;4.053
903.145;4.077
903.449;4.053
903.754;4.053
904.058;4.053
904.362;4.053
904.666;4.077
904.970;4.102
905.274;4.150
905.578;4.175
905.882;4.126
906.186;4.150
906.490;4.126
906.793;4.102
907.097;4.102
907.401;4.102
907.704;4.150
908.008;4.175
908.311;4.150
908.615;4.150
908.918;4.077
909.221;4.004
909.525;4.175
909.828;4.346
910.131;4.248
910.434;4.199
910.737;4.150
911.040;4.053
911.343;4.053
911.646;4.126
911.949;4.102
912.251;4.077
912.554;4.102
912.857;4.077
913.159;3.955
913.462;3.931
913.764;3.931
914.067;4.028
914.369;4.053
914.671;3.979
914.973;3.979
915.276;4.053
915.578;4.077
915.880;4.077
916.182;4.028
916.484;4.272
916.786;4.443
917.087;4.346
917.389;4.199
917.691;4.126
917.993;4.175
918.294;4.126
918.596;4.077
918.897;4.150
919.199;4.199
919.500;4.150
919.802;4.150
920.103;4.102
920.404;4.102
920.705;4.053
921.006;4.028
921.307;4.004
921.608;3.979
921.909;4.004
922.210;4.028
922.511;4.077
922.812;4.077
923.113;4.126
923.413;4.199
923.714;4.175
924.015;4.126
924.315;4.077
924.615;4.004
924.916;4.053
925.216;4.150
925.516;4.199
925.817;4.175
926.117;4.175
926.417;4.126
926.717;4.077
927.017;4.126
927.317;4.175
927.617;4.126
927.917;4.102
928.216;4.077
928.516;4.077
928.816;4.102
929.115;4.175
929.415;4.126
929.715;4.077
930.014;4.102
930.313;4.102
930.613;4.077
930.912;4.077
931.211;4.102
931.510;4.077
931.809;4.077
932.108;4.077
932.407;4.102
932.706;4.102
933.005;4.126
933.304;4.272
933.603;4.175
933.902;4.126
934.200;4.126
934.499;4.126
934.797;4.126
935.096;4.126
935.394;4.077
935.693;4.053
935.991;4.028
936.289;4.053
936.587;4.053
936.885;4.077
937.184;4.077
937.482;4.053
937.780;4.150
938.077;4.175
938.375;4.175
938.673;4.199
938.971;4.175
939.269;4.126
939.566;4.077
939.864;3.979
940.161;4.053
940.459;4.126
940.756;4.102
941.054;4.126
941.351;4.175
941.648;4.126
941.945;4.102
942.242;4.126
942.539;4.199
942.836;4.175
943.133;4.150
943.430;4.102
943.727;4.077
944.024;4.102
944.321;4.126
944.617;4.126
944.914;4.126
945.210;4.102
945.507;4.102
945.803;4.175
946.100;4.126
946.396;4.126
946.692;4.150
946.989;4.199
947.285;4.224
947.581;4.224
947.877;3.955
948.173;3.760
948.469;3.833
948.765;3.906
949.061;3.955
949.356;3.955
949.652;4.053
949.948;4.126
950.243;4.126
950.539;4.126
950.834;4.126
951.130;4.028
951.425;4.028
951.720;4.077
952.016;4.102
952.311;4.150
952.606;4.199
952.901;4.150
953.196;4.077
953.491;4.028
953.786;4.053
954.081;4.053
954.376;4.077
954.670;4.077
954.965;4.077
955.260;4.126
955.554;4.126
955.849;4.102
956.143;4.077
956.438;4.077
956.732;4.102
957.026;4.224
957.320;4.224
957.615;4.077
957.909;4.126
958.203;4.199
958.497;4.175
958.791;4.102
959.085;4.053
959.378;4.028
959.672;3.979
959.966;4.053
960.260;4.126
960.553;4.077
960.847;4.126
961.140;4.126
961.434;4.126
961.727;4.102
962.020;4.077
962.314;4.102
962.607;4.224
962.900;4.126
963.193;4.102
963.486;4.126
963.779;4.150
964.072;4.175
964.365;4.150
964.658;4.102
964.950;4.077
965.243;4.028
965.536;4.053
965.828;4.077
966.121;4.053
966.413;3.979
966.706;4.004
966.998;4.028
967.290;4.004
967.582;4.004
967.875;4.053
968.167;4.053
968.459;4.053
968.751;4.004
969.043;4.004
969.335;4.028
969.626;4.468
969.918;4.492
970.210;4.224
970.501;4.102
970.793;3.979
971.085;3.955
971.376;3.979
971.668;4.028
971.959;4.102
972.250;4.126
972.541;4.297
972.833;4.346
973.124;4.175
973.415;4.102
973.706;4.077
973.997;4.102
974.288;4.126
974.579;4.077
974.869;4.150
975.160;4.175
975.451;4.175
975.741;4.126
976.032;4.077
976.322;4.053
976.613;4.053
976.903;4.102
977.194;4.102
977.484;4.150
977.774;4.102
978.064;4.004
978.354;3.955
978.644;4.028
978.934;4.126
979.224;4.150
979.514;4.102
979.804;4.053
980.094;4.004
980.383;4.004
980.673;3.955
980.963;3.955
981.252;3.979
981.541;4.028
981.831;4.053
982.120;4.053
982.410;4.053
982.699;4.102
982.988;4.126
983.277;4.077
983.566;4.028
983.855;4.004
984.144;3.955
984.433;3.955
984.722;4.004
985.010;4.102
985.299;4.102
985.588;4.126
985.876;4.126
986.165;4.150
986.453;4.150
986.742;4.102
987.030;4.150
987.318;4.199
987.607;4.126
987.895;4.028
988.183;4.053
988.471;4.077
988.759;4.004
989.047;4.053
989.335;4.150
989.623;4.077
989.911;4.028
990.198;4.028
990.486;4.077
990.774;4.102
991.061;4.175
991.349;4.175
991.636;4.102
991.923;4.102
992.211;4.150
992.498;4.150
992.785;4.102
993.072;4.028
993.359;3.979
993.646;3.979
993.933;4.004
994.220;4.077
994.507;4.102
994.794;4.102
995.081;4.150
995.367;4.150
995.654;4.077
995.940;4.077
996.227;4.077
996.513;4.102
996.800;4.077
997.086;4.077
997.372;4.102
997.659;4.102
997.945;4.077
998.231;4.028
998.517;4.028
998.803;4.102
999.089;4.053
999.375;4.004
999.660;3.955
999.946;3.955
1000.232;3.955
1000.517;3.955
1000.803;4.004
1001.088;4.077
1001.374;4.126
1001.659;4.150
1001.945;4.102
1002.230;4.077
1002.515;4.102
1002.800;4.102
1003.085;4.028
1003.370;3.979
1003.655;3.955
1003.940;4.004
1004.225;4.053
1004.510;4.004
1004.795;4.004
1005.079;4.004
1005.364;4.028
1005.649;4.077
1005.933;4.077
1006.218;4.150
1006.502;4.126
1006.786;4.028
1007.071;3.979
1007.355;3.955
1007.639;4.004
1007.923;4.077
1008.207;4.102
1008.491;4.126
1008.775;4.150
1009.059;4.150
1009.343;4.102
1009.626;4.053
1009.910;4.028
1010.194;3.979
1010.477;4.004
1010.761;4.028
1011.044;4.004
1011.328;4.004
1011.611;4.028
1011.894;4.053
1012.177;4.102
1012.461;4.102
1012.744;4.150
1013.027;4.150
1013.310;4.150
1013.593;4.150
1013.875;4.126
1014.158;4.053
1014.441;4.102
1014.724;4.126
1015.006;4.126
1015.289;4.102
1015.571;4.102
1015.854;4.126
1016.136;4.102
1016.419;4.150
1016.701;4.175
1016.983;4.077
1017.265;4.028
1017.547;4.077
1017.829;4.053
1018.111;4.077
1018.393;4.028
1018.675;3.955
1018.957;3.931
1019.239;3.931
1019.520;3.955
1019.802;4.004
1020.084;4.053
1020.365;4.053
1020.647;4.126
1020.928;4.224
1021.209;4.199
1021.491;4.053
1021.772;4.028
1022.053;4.175
1022.334;4.199
1022.615;4.150
1022.896;4.199
1023.177;4.150
1023.458;4.077
1023.739;4.053
1024.019;4.004
1024.300;4.053
1024.581;4.077
