Wavelength (nm);Intensity Source
341.676;3.955
342.058;4.004
342.440;4.077
342.822;4.175
343.204;4.150
343.586;4.175
343.968;4.175
344.350;4.150
344.732;4.077
345.114;4.077
345.495;4.028
345.877;4.004
346.259;4.077
346.640;4.150
347.022;4.126
347.403;4.150
347.785;4.175
348.166;4.126
348.548;4.053
348.929;4.053
349.311;3.979
349.692;3.882
350.073;3.906
350.454;3.906
350.836;3.906
351.217;3.931
351.598;4.028
351.979;4.077
352.360;4.102
352.741;4.102
353.122;4.150
353.503;4.175
353.884;4.126
354.265;4.004
354.645;3.931
355.026;4.004
355.407;4.053
355.787;4.053
356.168;4.102
356.549;4.077
356.929;4.004
357.310;4.028
357.690;4.102
358.071;4.053
358.451;3.979
358.831;3.979
359.212;3.979
359.592;3.955
359.972;4.028
360.352;4.077
360.732;4.126
361.113;4.126
361.493;4.053
361.873;3.979
362.253;4.053
362.632;4.126
363.012;4.175
363.392;4.224
363.772;4.370
364.152;4.419
364.532;4.297
364.911;4.199
365.291;4.126
365.670;4.053
366.050;4.004
366.430;4.028
366.809;4.053
367.188;4.053
367.568;4.150
367.947;4.224
368.327;4.272
368.706;4.272
369.085;4.346
369.464;4.297
369.843;4.224
370.223;4.248
370.602;4.346
370.981;4.395
371.360;4.468
371.739;4.517
372.118;4.517
372.496;4.468
372.875;4.443
373.254;4.468
373.633;4.663
374.011;4.736
374.390;4.712
374.769;4.639
375.147;4.541
375.526;4.443
375.904;4.468
376.283;4.639
376.661;4.639
377.040;4.687
377.418;4.663
377.796;4.639
378.175;4.492
378.553;4.468
378.931;4.419
379.309;4.395
379.687;4.419
380.065;4.468
380.443;4.443
380.821;4.297
381.199;4.199
381.577;4.224
381.955;4.321
382.333;4.419
382.710;4.517
383.088;4.492
383.466;4.736
383.843;4.687
384.221;4.492
384.599;4.517
384.976;4.565
385.353;4.541
385.731;4.468
386.108;4.492
386.486;4.492
386.863;4.443
387.240;4.419
387.617;4.395
387.995;4.370
388.372;4.297
388.749;4.248
389.126;4.224
389.503;4.175
389.880;4.297
390.257;4.492
390.634;4.443
391.011;4.370
391.387;4.370
391.764;4.590
392.141;4.639
392.518;4.468
392.894;4.346
393.271;4.248
393.647;4.297
394.024;4.395
394.400;4.297
394.777;4.224
395.153;4.224
395.530;4.004
395.906;3.955
396.282;4.126
396.658;4.175
397.034;4.150
397.411;4.102
397.787;4.150
398.163;4.224
398.539;4.370
398.915;4.370
399.291;4.272
399.667;4.272
400.042;4.321
400.418;4.224
400.794;4.175
401.170;4.199
401.545;4.150
401.921;4.126
402.297;4.199
402.672;4.297
403.048;4.272
403.423;4.150
403.799;4.150
404.174;4.199
404.549;4.175
404.925;4.150
405.300;4.126
405.675;4.150
406.050;4.248
406.426;4.272
406.801;4.248
407.176;4.370
407.551;4.443
407.926;4.443
408.301;4.370
408.676;4.297
409.050;4.321
409.425;4.370
409.800;4.370
410.175;4.321
410.549;4.272
410.924;4.248
411.299;4.248
411.673;4.175
412.048;4.102
412.422;4.126
412.797;4.150
413.171;4.224
413.545;4.272
413.920;4.297
414.294;4.248
414.668;4.248
415.042;4.321
415.416;4.419
415.790;4.468
416.164;4.370
416.538;4.224
416.912;4.175
417.286;4.248
417.660;4.321
418.034;4.248
418.408;4.199
418.782;4.248
419.155;4.224
419.529;4.346
419.903;4.321
420.276;4.346
420.650;4.419
421.023;4.297
421.397;4.248
421.770;4.297
422.144;4.297
422.517;4.321
422.890;4.321
423.263;4.248
423.637;4.224
424.010;4.175
424.383;4.297
424.756;4.443
425.129;4.370
425.502;4.346
425.875;4.419
426.248;4.395
426.621;4.297
426.994;4.224
427.366;4.175
427.739;4.224
428.112;4.321
428.484;4.370
428.857;4.370
429.230;4.248
429.602;4.150
429.975;4.175
430.347;4.199
430.719;4.248
431.092;4.297
431.464;4.321
431.836;4.468
432.209;4.541
432.581;4.419
432.953;4.395
433.325;4.395
433.697;4.272
434.069;4.321
434.441;4.468
434.813;4.346
435.185;4.297
435.557;4.297
435.929;4.199
436.300;4.175
436.672;4.248
437.044;4.224
437.415;4.248
437.787;4.346
438.159;4.297
438.530;4.419
438.902;4.541
439.273;4.370
439.644;4.248
440.016;4.224
440.387;4.199
440.758;4.297
441.129;4.346
441.501;4.297
441.872;4.224
442.243;4.175
442.614;4.492
442.985;4.736
443.356;4.395
443.727;4.224
444.098;4.248
444.468;4.199
444.839;4.175
445.210;4.321
445.581;4.395
445.951;4.321
446.322;4.443
446.692;4.395
447.063;4.272
447.433;4.272
447.804;4.297
448.174;4.248
448.545;4.297
448.915;4.321
449.285;4.248
449.655;4.175
450.026;4.224
450.396;4.248
450.766;4.224
451.136;4.199
451.506;4.248
451.876;4.248
452.246;4.297
452.616;4.614
452.985;4.565
453.355;4.297
453.725;4.370
454.095;4.468
454.464;4.419
454.834;4.370
455.204;4.321
455.573;4.248
455.943;4.224
456.312;4.297
456.681;4.272
457.051;4.248
457.420;4.419
457.789;4.443
458.159;4.321
458.528;4.224
458.897;4.272
459.266;4.297
459.635;4.248
460.004;4.321
460.373;4.346
460.742;4.370
461.111;4.346
461.480;4.321
461.849;4.272
462.217;4.395
462.586;4.443
462.955;4.321
463.323;4.150
463.692;4.077
464.060;4.126
464.429;4.150
464.797;4.224
465.166;4.272
465.534;4.272
465.903;4.199
466.271;4.297
466.639;4.272
467.007;4.224
467.375;4.224
467.744;4.199
468.112;4.224
468.480;4.272
468.848;4.248
469.216;4.248
469.583;4.199
469.951;4.175
470.319;4.150
470.687;4.224
471.055;4.248
471.422;4.248
471.790;4.272
472.157;4.248
472.525;4.272
472.892;4.370
473.260;4.395
473.627;4.346
473.995;4.248
474.362;4.150
474.729;4.150
475.097;4.199
475.464;4.272
475.831;4.297
476.198;4.346
476.565;4.126
476.932;4.077
477.299;4.199
477.666;4.126
478.033;4.199
478.400;4.272
478.767;4.199
479.133;4.224
479.500;4.272
479.867;4.272
480.233;4.321
480.600;4.346
480.966;4.321
481.333;4.346
481.699;4.297
482.066;4.297
482.432;4.248
482.798;4.175
483.165;4.199
483.531;4.175
483.897;4.150
484.263;4.175
484.629;4.150
484.996;4.126
485.362;4.248
485.727;4.297
486.093;4.272
486.459;4.321
486.825;4.297
487.191;4.224
487.557;4.272
487.922;4.272
488.288;4.224
488.654;4.272
489.019;4.224
489.385;4.272
489.750;4.321
490.116;4.248
490.481;4.199
490.846;4.224
491.212;4.297
491.577;4.370
491.942;4.370
492.307;4.370
492.673;4.272
493.038;4.272
493.403;4.297
493.768;4.224
494.133;4.175
494.498;4.224
494.862;4.297
495.227;4.224
495.592;4.199
495.957;4.126
496.322;4.028
496.686;4.004
497.051;4.102
497.415;4.248
497.780;4.297
498.144;4.272
498.509;4.321
498.873;4.272
499.238;4.224
499.602;4.272
499.966;4.199
500.330;4.126
500.694;4.199
501.059;4.272
501.423;4.370
501.787;4.395
502.151;4.346
502.515;4.272
502.879;4.248
503.242;4.297
503.606;4.248
503.970;4.272
504.334;4.346
504.697;4.370
505.061;4.370
505.425;4.346
505.788;4.321
506.152;4.443
506.515;4.443
506.878;4.321
507.242;4.272
507.605;4.248
507.968;4.248
508.332;4.346
508.695;4.395
509.058;4.370
509.421;4.346
509.784;4.395
510.147;4.395
510.510;4.492
510.873;4.492
511.236;4.370
511.599;4.370
511.962;4.395
512.324;4.395
512.687;4.321
513.050;4.224
513.412;4.175
513.775;4.297
514.137;4.419
514.500;4.419
514.862;4.346
515.225;4.297
515.587;4.346
515.949;4.419
516.312;4.517
516.674;4.541
517.036;4.468
517.398;4.443
517.760;4.370
518.122;4.370
518.484;4.321
518.846;4.248
519.208;4.321
519.570;4.395
519.932;4.395
520.293;4.370
520.655;4.395
521.017;4.395
521.379;4.419
521.740;4.346
522.102;4.297
522.463;4.346
522.825;4.419
523.186;4.517
523.547;4.443
523.909;4.395
524.270;4.297
524.631;4.272
524.992;4.541
525.353;4.639
525.715;4.687
526.076;4.590
526.437;4.443
526.798;4.443
527.159;4.419
527.519;4.517
527.880;4.541
528.241;4.492
528.602;4.443
528.962;4.541
529.323;4.541
529.684;4.419
530.044;4.321
530.405;4.224
530.765;4.224
531.126;4.248
531.486;4.224
531.846;4.248
532.207;4.517
532.567;4.614
532.927;4.443
533.287;4.346
533.647;4.346
534.007;4.370
534.367;4.395
534.727;4.321
535.087;4.297
535.447;4.321
535.807;4.395
536.167;4.492
536.526;4.517
536.886;4.370
537.246;4.297
537.605;4.297
537.965;4.370
538.324;4.419
538.684;4.395
539.043;4.395
539.403;4.443
539.762;4.419
540.121;4.590
540.481;4.639
540.840;4.541
541.199;4.492
541.558;4.468
541.917;4.419
542.276;4.468
542.635;4.517
542.994;4.468
543.353;4.370
543.712;4.370
544.071;4.419
544.429;4.419
544.788;4.443
545.147;4.443
545.505;4.443
545.864;4.614
546.222;4.761
546.581;4.736
546.939;4.687
547.298;4.712
547.656;4.687
548.014;4.639
548.373;4.517
548.731;4.346
549.089;4.492
549.447;4.541
549.805;4.565
550.163;4.639
550.521;4.761
550.879;4.736
551.237;4.687
551.595;4.810
551.953;4.858
552.310;4.712
552.668;4.639
553.026;4.712
553.383;4.663
553.741;5.371
554.098;5.298
554.456;4.785
554.813;4.834
555.171;5.029
555.528;4.932
555.885;4.810
556.242;4.663
556.600;4.614
556.957;4.663
557.314;4.736
557.671;4.858
558.028;4.956
558.385;5.029
558.742;4.980
559.099;4.834
559.456;4.883
559.812;4.883
560.169;4.980
560.526;5.005
560.883;5.103
561.239;5.029
561.596;5.054
561.952;4.980
562.309;4.810
562.665;4.810
563.021;4.858
563.378;4.932
563.734;5.005
564.090;5.103
564.447;5.249
564.803;5.420
565.159;5.396
565.515;5.493
565.871;5.469
566.227;5.542
566.583;5.444
566.939;5.444
567.294;5.542
567.650;5.737
568.006;8.203
568.362;6.543
568.717;6.128
569.073;6.104
569.428;6.152
569.784;6.372
570.139;6.274
570.495;6.250
570.850;6.421
571.205;6.641
571.561;6.641
571.916;6.909
572.271;6.958
572.626;7.129
572.981;7.202
573.336;7.275
573.691;7.617
574.046;7.520
574.401;7.788
574.756;8.008
575.111;8.301
575.466;8.374
575.820;8.594
576.175;9.009
576.530;9.277
576.884;9.375
577.239;9.814
577.593;9.863
577.948;10.059
578.302;10.376
578.656;10.669
579.011;11.255
579.365;11.304
579.719;12.207
580.073;11.816
580.428;12.720
580.782;13.184
581.136;13.696
581.490;13.843
581.844;14.453
582.197;14.990
582.551;15.381
582.905;16.138
583.259;16.699
583.613;16.455
583.966;18.018
584.320;18.628
584.673;18.921
585.027;19.849
585.380;20.752
585.734;20.972
586.087;21.802
586.440;22.681
586.794;23.730
587.147;24.536
587.500;24.927
587.853;25.684
588.206;26.978
588.559;27.856
588.913;28.735
589.265;29.077
589.618;30.518
589.971;31.470
590.324;33.374
590.677;33.423
591.030;34.814
591.382;36.597
591.735;37.378
592.087;37.842
592.440;40.088
592.792;41.064
593.145;42.480
593.497;43.823
593.850;44.824
594.202;47.119
594.554;47.583
594.906;48.950
595.259;50.098
595.611;51.440
595.963;52.710
596.315;53.931
596.667;55.542
597.019;56.299
597.371;57.642
597.723;59.448
598.074;60.425
598.426;61.865
598.778;63.281
599.129;63.623
599.481;64.551
599.833;64.941
600.184;67.090
600.536;67.065
600.887;68.896
601.238;70.117
601.590;70.972
601.941;69.849
602.292;71.118
602.643;72.339
602.994;72.607
603.346;73.657
603.697;73.755
604.048;74.365
604.399;75.146
604.749;73.828
605.100;74.219
605.451;73.120
605.802;72.290
606.153;70.972
606.503;72.095
606.854;73.047
607.204;71.460
607.555;70.361
607.905;69.556
608.256;69.556
608.606;69.946
608.957;69.116
609.307;67.236
609.657;66.479
610.007;65.479
610.358;64.697
610.708;62.598
611.058;61.841
611.408;61.304
611.758;59.595
612.108;58.350
612.457;57.251
612.807;57.202
613.157;55.786
613.507;54.248
613.856;52.417
614.206;51.172
614.556;50.610
614.905;48.975
615.255;48.022
615.604;47.559
615.954;45.825
616.303;44.458
616.652;43.286
617.001;41.919
617.351;40.625
617.700;39.307
618.049;37.671
618.398;36.768
618.747;36.157
619.096;34.888
619.445;34.326
619.794;33.789
620.143;32.495
620.491;31.885
620.840;30.005
621.189;29.346
621.537;28.882
621.886;26.636
622.235;27.368
622.583;26.855
622.932;25.220
623.280;24.585
623.628;23.828
623.977;22.974
624.325;22.144
624.673;21.606
625.021;20.654
625.369;20.361
625.717;19.092
626.065;19.189
626.413;18.604
626.761;17.871
627.109;17.212
627.457;16.846
627.805;16.553
628.153;15.503
628.500;15.137
628.848;14.697
629.196;14.258
629.543;14.209
629.891;13.745
630.238;12.964
630.585;12.549
630.933;12.500
631.280;11.743
631.627;11.865
631.975;11.084
632.322;10.693
632.669;10.547
633.016;11.035
633.363;10.181
633.710;10.107
634.057;9.937
634.404;9.521
634.751;9.155
635.097;8.862
635.444;8.521
635.791;9.058
636.137;8.447
636.484;8.057
636.831;8.032
637.177;7.837
637.524;7.568
637.870;7.715
638.216;7.837
638.563;7.422
638.909;7.324
639.255;7.275
639.601;7.007
639.947;6.567
640.293;7.007
640.639;6.616
640.985;6.567
641.331;6.348
641.677;6.348
642.023;6.226
642.369;6.177
642.715;6.055
643.060;5.957
643.406;6.030
643.751;5.811
644.097;5.713
644.442;5.664
644.788;5.737
645.133;5.640
645.479;5.444
645.824;5.469
646.169;5.420
646.514;5.347
646.860;5.249
647.205;5.298
647.550;5.273
647.895;5.151
648.240;5.176
648.585;5.200
648.930;5.103
649.274;5.078
649.619;4.956
649.964;5.005
650.309;4.980
650.653;4.810
650.998;4.736
651.342;4.736
651.687;4.663
652.031;4.590
652.376;4.590
652.720;4.565
653.064;4.590
653.408;4.761
653.753;4.712
654.097;4.541
654.441;4.590
654.785;4.712
655.129;4.907
655.473;4.834
655.817;4.639
656.161;4.517
656.504;4.468
656.848;4.590
657.192;4.614
657.536;4.565
657.879;4.492
658.223;4.517
658.566;4.443
658.910;4.443
659.253;4.419
659.597;4.297
659.940;4.297
660.283;4.248
660.626;4.199
660.970;4.297
661.313;4.297
661.656;4.297
661.999;4.370
662.342;4.321
662.685;4.321
663.028;4.248
663.370;4.224
663.713;4.248
664.056;4.297
664.399;4.297
664.741;4.224
665.084;4.224
665.426;4.224
665.769;4.248
666.111;4.321
666.454;4.443
666.796;4.468
667.138;4.419
667.481;4.517
667.823;4.492
668.165;4.370
668.507;4.297
668.849;4.272
669.191;4.272
669.533;4.248
669.875;4.199
670.217;4.175
670.559;4.175
670.901;4.150
671.242;4.199
671.584;4.346
671.926;4.370
672.267;4.224
672.609;4.126
672.950;4.272
673.292;4.346
673.633;4.346
673.974;4.370
674.316;4.272
674.657;4.224
674.998;4.199
675.339;4.248
675.680;4.297
676.021;4.321
676.362;4.395
676.703;4.297
677.044;4.175
677.385;4.126
677.726;4.150
678.067;4.199
678.407;4.224
678.748;4.224
679.088;4.248
679.429;4.346
679.770;4.297
680.110;4.224
680.450;4.248
680.791;4.199
681.131;4.199
681.471;4.248
681.811;4.272
682.152;4.224
682.492;4.150
682.832;4.126
683.172;4.224
683.512;4.248
683.852;4.175
684.192;4.248
684.531;4.321
684.871;4.321
685.211;4.297
685.551;4.224
685.890;4.150
686.230;4.175
686.569;4.248
686.909;4.297
687.248;4.321
687.588;4.419
687.927;4.419
688.266;4.297
688.605;4.248
688.945;4.199
689.284;4.224
689.623;4.199
689.962;4.272
690.301;4.395
690.640;4.370
690.979;4.321
691.317;4.224
691.656;4.126
691.995;4.126
692.334;4.199
692.672;4.346
693.011;4.321
693.349;4.248
693.688;4.224
694.026;4.175
694.365;4.053
694.703;3.979
695.041;4.004
695.379;4.053
695.718;4.126
696.056;4.126
696.394;4.346
696.732;4.541
697.070;4.346
697.408;4.175
697.746;4.102
698.084;4.199
698.421;4.248
698.759;4.199
699.097;4.199
699.435;4.224
699.772;4.175
700.110;4.053
700.447;3.955
700.785;3.979
701.122;4.028
701.459;4.077
701.797;4.077
702.134;4.126
702.471;4.077
702.808;4.028
703.145;4.028
703.482;4.028
703.819;4.077
704.156;4.053
704.493;4.004
704.830;4.028
705.167;4.077
705.504;4.102
705.840;4.175
706.177;4.272
706.514;4.346
706.850;4.321
707.187;4.297
707.523;4.248
707.860;4.272
708.196;4.248
708.532;4.199
708.868;4.175
709.205;4.224
709.541;4.248
709.877;4.272
710.213;4.199
710.549;4.150
710.885;4.150
711.221;4.175
711.557;4.175
711.893;4.126
712.228;4.077
712.564;4.248
712.900;4.590
713.235;4.443
713.571;4.248
713.906;4.224
714.242;4.150
714.577;4.175
714.913;4.199
715.248;4.150
715.583;4.150
715.918;4.175
716.254;4.102
716.589;4.102
716.924;4.150
717.259;4.175
717.594;4.126
717.929;4.102
718.263;4.126
718.598;4.150
718.933;4.199
719.268;4.150
719.602;4.102
719.937;4.077
720.272;4.077
720.606;4.077
720.941;4.102
721.275;4.077
721.609;4.077
721.944;4.102
722.278;4.199
722.612;4.395
722.946;4.370
723.280;4.248
723.614;4.224
723.948;4.224
724.282;4.590
724.616;4.687
724.950;4.517
725.284;4.492
725.618;4.419
725.951;4.468
726.285;4.370
726.619;4.346
726.952;4.443
727.286;4.419
727.619;4.419
727.953;4.370
728.286;4.395
728.619;4.370
728.953;4.321
729.286;4.346
729.619;4.272
729.952;4.224
730.285;4.199
730.618;4.224
730.951;4.199
731.284;4.150
731.617;4.102
731.950;4.126
732.282;4.272
732.615;4.370
732.948;4.321
733.280;4.370
733.613;4.395
733.945;4.248
734.278;4.248
734.610;4.272
734.942;4.199
735.275;4.199
735.607;4.224
735.939;4.175
736.271;4.077
736.603;4.126
736.936;4.175
737.268;4.297
737.599;4.297
737.931;4.224
738.263;4.199
738.595;4.272
738.927;4.395
739.258;4.443
739.590;4.321
739.922;4.321
740.253;4.517
740.585;5.176
740.916;4.907
741.248;4.590
741.579;4.492
741.910;4.297
742.241;4.175
742.573;4.150
742.904;4.199
743.235;4.370
743.566;4.370
743.897;4.248
744.228;4.224
744.559;4.126
744.889;4.077
745.220;4.077
745.551;4.028
745.882;4.028
746.212;4.077
746.543;4.126
746.873;4.175
747.204;4.199
747.534;4.224
747.865;4.199
748.195;4.126
748.525;4.102
748.855;4.077
749.186;4.028
749.516;4.028
749.846;4.150
750.176;4.126
750.506;4.077
750.836;4.150
751.166;4.199
751.495;4.175
751.825;4.102
752.155;4.028
752.484;4.175
752.814;4.321
753.144;4.248
753.473;4.199
753.803;4.175
754.132;4.175
754.461;4.150
754.791;4.248
755.120;4.248
755.449;4.175
755.778;4.126
756.107;4.077
756.436;4.248
756.765;4.321
757.094;4.248
757.423;4.272
757.752;4.272
758.081;4.199
758.410;4.150
758.738;4.150
759.067;4.175
759.396;4.102
759.724;4.126
760.053;4.102
760.381;4.150
760.709;4.297
761.038;4.321
761.366;4.297
761.694;4.272
762.022;4.248
762.351;4.150
762.679;4.053
763.007;4.077
763.335;4.224
763.663;4.224
763.990;4.150
764.318;4.199
764.646;4.224
764.974;4.199
765.301;4.150
765.629;4.077
765.957;4.150
766.284;4.224
766.612;4.175
766.939;4.150
767.266;4.175
767.594;4.150
767.921;4.126
768.248;4.102
768.575;4.126
768.902;4.175
769.229;4.199
769.556;4.248
769.883;4.248
770.210;4.175
770.537;4.175
770.864;4.248
771.191;4.248
771.517;4.199
771.844;4.126
772.171;4.077
772.497;4.028
772.824;4.053
773.150;4.175
773.476;4.248
773.803;4.272
774.129;4.272
774.455;4.321
774.781;4.346
775.107;4.346
775.434;4.297
775.760;4.224
776.086;4.248
776.411;4.370
776.737;4.419
777.063;4.272
777.389;4.224
777.715;4.321
778.040;4.321
778.366;4.248
778.691;4.199
779.017;4.199
779.342;4.224
779.668;4.199
779.993;4.150
780.318;4.224
780.644;4.150
780.969;4.102
781.294;4.150
781.619;4.102
781.944;4.053
782.269;4.102
782.594;4.199
782.919;4.297
783.244;4.370
783.568;4.321
783.893;4.175
784.218;4.102
784.542;4.102
784.867;4.102
785.192;4.102
785.516;4.126
785.840;4.150
786.165;4.102
786.489;4.077
786.813;4.102
787.138;4.102
787.462;4.126
787.786;4.248
788.110;4.492
788.434;4.565
788.758;4.492
789.082;4.346
789.406;4.224
789.729;4.224
790.053;4.175
790.377;4.175
790.700;4.297
791.024;4.248
791.348;4.102
791.671;4.077
791.994;4.321
792.318;4.370
792.641;4.175
792.964;4.150
793.288;4.150
793.611;4.150
793.934;4.126
794.257;4.102
794.580;4.102
794.903;4.102
795.226;4.150
795.549;4.199
795.871;4.297
796.194;4.248
796.517;4.150
796.840;4.126
797.162;4.126
797.485;4.199
797.807;4.321
798.130;4.272
798.452;4.224
798.774;4.199
799.097;4.175
799.419;4.102
799.741;4.102
800.063;4.248
800.385;4.297
800.707;4.248
801.029;4.272
801.351;4.199
801.673;4.224
801.995;4.321
802.317;4.590
802.638;4.712
802.960;4.565
803.281;4.419
803.603;4.297
803.924;4.224
804.246;4.150
804.567;4.077
804.889;4.126
805.210;4.126
805.531;4.126
805.852;4.224
806.173;4.321
806.495;4.248
806.816;4.150
807.137;4.175
807.457;4.199
807.778;4.199
808.099;4.272
808.420;4.272
808.741;4.224
809.061;4.175
809.382;4.150
809.702;4.150
810.023;4.077
810.343;4.224
810.664;4.346
810.984;4.297
811.304;4.224
811.625;4.199
811.945;4.199
812.265;4.297
812.585;4.297
812.905;4.297
813.225;4.272
813.545;4.297
813.865;4.395
814.184;4.321
814.504;4.199
814.824;4.199
815.144;4.102
815.463;4.102
815.783;4.150
816.102;4.077
816.422;4.004
816.741;4.004
817.060;4.004
817.380;3.955
817.699;3.979
818.018;4.053
818.337;4.224
818.656;4.150
818.975;4.004
819.294;4.028
819.613;4.102
819.932;4.126
820.251;4.102
820.570;4.053
820.888;4.028
821.207;4.102
821.526;4.150
821.844;4.102
822.163;4.102
822.481;4.150
822.799;4.175
823.118;4.224
823.436;4.272
823.754;4.199
824.072;4.077
824.390;4.053
824.709;4.077
825.027;4.175
825.345;4.248
825.662;4.248
825.980;4.272
826.298;4.199
826.616;4.346
826.934;4.419
827.251;4.346
827.569;4.272
827.886;4.224
828.204;4.150
828.521;4.150
828.839;4.175
829.156;4.175
829.473;4.199
829.790;4.224
830.108;4.224
830.425;4.175
830.742;4.102
831.059;4.175
831.376;4.150
831.693;4.102
832.009;4.102
832.326;4.102
832.643;4.126
832.960;4.199
833.276;4.321
833.593;4.346
833.909;4.321
834.226;4.272
834.542;4.224
834.859;4.150
835.175;4.126
835.491;4.077
835.807;4.077
836.123;4.126
836.440;4.150
836.756;4.102
837.072;4.053
837.388;4.102
837.703;4.175
838.019;4.224
838.335;4.199
838.651;4.175
838.966;4.297
839.282;4.321
839.598;4.419
839.913;4.468
840.229;4.321
840.544;4.297
840.859;4.272
841.175;4.248
841.490;4.321
841.805;4.297
842.120;4.224
842.435;4.175
842.750;4.175
843.065;4.175
843.380;4.150
843.695;4.150
844.010;4.175
844.325;4.150
844.639;4.150
844.954;4.126
845.269;4.126
845.583;4.224
845.898;4.272
846.212;4.321
846.526;4.346
846.841;4.272
847.155;4.321
847.469;4.321
847.783;4.321
848.097;11.865
848.412;5.762
848.726;4.590
849.039;4.297
849.353;4.199
849.667;4.175
849.981;4.126
850.295;4.053
850.608;3.979
850.922;4.004
851.236;4.028
851.549;4.102
851.863;4.150
852.176;4.224
852.489;4.248
852.803;4.175
853.116;4.102
853.429;4.053
853.742;4.053
854.055;4.053
854.368;4.004
854.681;4.102
854.994;4.102
855.307;4.077
855.620;4.150
855.933;4.126
856.246;4.053
856.558;4.077
856.871;4.126
857.183;4.175
857.496;4.175
857.808;4.199
858.121;4.224
858.433;4.224
858.745;4.199
859.058;4.199
859.370;4.297
859.682;4.297
859.994;4.272
860.306;4.272
860.618;4.224
860.930;4.150
861.242;4.150
861.553;4.126
861.865;4.102
862.177;4.102
862.488;4.150
862.800;4.028
863.112;3.931
863.423;3.955
863.734;4.004
864.046;4.004
864.357;4.126
864.668;4.346
864.980;4.321
865.291;4.248
865.602;4.248
865.913;4.199
866.224;4.102
866.535;4.102
866.846;4.126
867.156;4.126
867.467;4.248
867.778;4.395
868.089;4.272
868.399;4.199
868.710;4.199
869.020;4.224
869.331;4.199
869.641;4.199
869.951;4.199
870.262;4.297
870.572;4.468
870.882;4.395
871.192;4.199
871.502;4.126
871.812;4.077
872.122;4.077
872.432;4.150
872.742;4.150
873.052;4.102
873.361;4.199
873.671;4.395
873.981;4.370
874.290;4.272
874.600;4.150
874.909;4.102
875.219;4.077
875.528;3.979
875.837;4.004
876.147;4.077
876.456;4.053
876.765;4.004
877.074;3.979
877.383;4.028
877.692;4.102
878.001;4.175
878.310;4.199
878.619;4.150
878.927;4.199
879.236;4.224
879.545;4.224
879.853;4.199
880.162;4.199
880.470;4.126
880.779;4.102
881.087;4.102
881.395;4.077
881.704;4.053
882.012;4.053
882.320;4.004
882.628;4.004
882.936;4.126
883.244;4.224
883.552;4.663
883.860;4.639
884.168;4.370
884.475;4.297
884.783;4.272
885.091;4.297
885.398;4.297
885.706;4.224
886.013;4.272
886.321;4.346
886.628;4.346
886.936;4.346
887.243;4.297
887.550;4.199
887.857;4.272
888.164;4.395
888.471;4.443
888.778;4.321
889.085;4.199
889.392;4.199
889.699;4.224
890.006;4.248
890.312;4.248
890.619;4.224
890.926;4.175
891.232;4.175
891.539;4.175
891.845;4.126
892.152;4.102
892.458;4.126
892.764;4.175
893.070;4.224
893.377;4.199
893.683;4.272
893.989;4.272
894.295;4.175
894.601;4.102
894.907;4.077
895.213;4.102
895.518;4.102
895.824;4.077
896.130;4.102
896.435;4.150
896.741;4.297
897.046;4.492
897.352;4.443
897.657;4.321
897.963;4.224
898.268;4.175
898.573;4.150
898.878;4.102
899.183;4.077
899.488;4.028
899.793;4.053
900.098;4.077
900.403;4.053
900.708;4.077
901.013;4.102
901.318;4.150
901.622;4.150
901.927;4.224
902.232;4.297
902.536;4.297
902.841;4.248
903.145;4.346
903.449;4.346
903.754;4.199
904.058;4.102
904.362;4.053
904.666;4.077
904.970;4.102
905.274;4.150
905.578;4.224
905.882;4.126
906.186;4.102
906.490;4.126
906.793;4.102
907.097;4.053
907.401;4.150
907.704;4.272
908.008;4.272
908.311;4.297
908.615;4.321
908.918;4.272
909.221;4.199
909.525;4.175
909.828;4.199
910.131;4.199
910.434;4.175
910.737;4.150
911.040;4.150
911.343;4.224
911.646;4.224
911.949;4.150
912.251;4.150
912.554;4.297
912.857;4.297
913.159;4.150
913.462;4.102
913.764;4.028
914.067;3.979
914.369;4.028
914.671;4.077
914.973;4.175
915.276;4.272
915.578;4.321
915.880;4.297
916.182;4.224
916.484;4.736
916.786;4.785
917.087;4.443
917.389;4.297
917.691;4.199
917.993;4.248
918.294;4.248
918.596;4.199
918.897;4.272
919.199;4.346
919.500;4.248
919.802;4.175
920.103;4.150
920.404;4.199
920.705;4.199
921.006;4.150
921.307;4.126
921.608;4.297
921.909;4.297
922.210;4.224
922.511;4.297
922.812;4.346
923.113;4.346
923.413;4.297
923.714;4.224
924.015;4.150
924.315;4.102
924.615;4.102
924.916;4.150
925.216;4.150
925.516;4.126
925.817;4.126
926.117;4.150
926.417;4.175
926.717;4.175
927.017;4.126
927.317;4.126
927.617;4.150
927.917;4.175
928.216;4.224
928.516;4.199
928.816;4.321
929.115;4.346
929.415;4.248
929.715;4.297
930.014;4.370
930.313;4.346
930.613;4.346
930.912;4.248
931.211;4.199
931.510;4.199
931.809;4.175
932.108;4.175
932.407;4.199
932.706;4.175
933.005;4.199
933.304;4.321
933.603;4.346
933.902;4.224
934.200;4.224
934.499;4.248
934.797;4.224
935.096;4.224
935.394;4.224
935.693;4.224
935.991;4.224
936.289;4.199
936.587;4.150
936.885;4.248
937.184;4.272
937.482;4.175
937.780;4.224
938.077;4.224
938.375;4.224
938.673;4.248
938.971;4.248
939.269;4.248
939.566;4.248
939.864;4.199
940.161;4.175
940.459;4.126
940.756;4.126
941.054;4.224
941.351;4.297
941.648;4.199
941.945;4.126
942.242;4.102
942.539;4.053
942.836;4.053
943.133;4.053
943.430;4.199
943.727;4.248
944.024;4.199
944.321;4.248
944.617;4.175
944.914;4.126
945.210;4.102
945.507;4.126
945.803;4.199
946.100;4.224
946.396;4.199
946.692;4.175
946.989;4.126
947.285;4.150
947.581;4.102
947.877;4.175
948.173;4.199
948.469;4.126
948.765;4.077
949.061;4.028
949.356;4.004
949.652;4.126
949.948;4.224
950.243;4.150
950.539;4.102
950.834;4.102
951.130;4.102
951.425;4.126
951.720;4.126
952.016;4.175
952.311;4.199
952.606;4.248
952.901;4.224
953.196;4.126
953.491;4.150
953.786;4.199
954.081;4.150
954.376;4.199
954.670;4.224
954.965;4.150
955.260;4.199
955.554;4.150
955.849;4.077
956.143;4.077
956.438;4.126
956.732;4.175
957.026;4.297
957.320;4.272
957.615;4.150
957.909;4.102
958.203;4.248
958.497;4.272
958.791;4.175
959.085;4.150
959.378;4.175
959.672;4.224
959.966;4.150
960.260;4.150
960.553;4.150
960.847;4.150
961.140;4.077
961.434;4.053
961.727;4.102
962.020;4.102
962.314;4.150
962.607;4.248
962.900;4.175
963.193;4.175
963.486;4.199
963.779;4.199
964.072;4.224
964.365;4.224
964.658;4.150
964.950;4.077
965.243;4.102
965.536;4.175
965.828;4.248
966.121;4.272
966.413;4.175
966.706;4.150
966.998;4.102
967.290;4.053
967.582;4.077
967.875;4.077
968.167;4.053
968.459;4.102
968.751;4.175
969.043;4.272
969.335;4.321
969.626;5.273
969.918;5.151
970.210;4.492
970.501;4.248
970.793;4.150
971.085;4.126
971.376;4.150
971.668;4.126
971.959;4.199
972.250;4.224
972.541;4.395
972.833;4.468
973.124;4.370
973.415;4.321
973.706;4.346
973.997;4.272
974.288;4.248
974.579;4.272
974.869;4.297
975.160;4.248
975.451;4.297
975.741;4.346
976.032;4.321
976.322;4.248
976.613;4.199
976.903;4.224
977.194;4.224
977.484;4.102
977.774;4.199
978.064;4.224
978.354;4.126
978.644;4.199
978.934;4.199
979.224;4.272
979.514;4.272
979.804;4.150
980.094;4.053
980.383;4.053
980.673;4.077
980.963;4.053
981.252;4.028
981.541;3.931
981.831;3.955
982.120;4.053
982.410;4.126
982.699;4.175
982.988;4.199
983.277;4.175
983.566;4.150
983.855;4.175
984.144;4.126
984.433;4.077
984.722;4.126
985.010;4.248
985.299;4.272
985.588;4.370
985.876;4.395
986.165;4.614
986.453;4.590
986.742;4.272
987.030;4.199
987.318;4.199
987.607;4.150
987.895;4.150
988.183;4.150
988.471;4.102
988.759;4.077
989.047;4.224
989.335;4.297
989.623;4.199
989.911;4.175
990.198;4.175
990.486;4.102
990.774;4.126
991.061;4.199
991.349;4.199
991.636;4.199
991.923;4.248
992.211;4.199
992.498;4.199
992.785;4.175
993.072;4.126
993.359;4.053
993.646;4.004
993.933;4.053
994.220;4.150
994.507;4.175
994.794;4.150
995.081;4.224
995.367;4.224
995.654;4.126
995.940;4.126
996.227;4.126
996.513;4.175
996.800;4.224
997.086;4.199
997.372;4.077
997.659;4.004
997.945;4.053
998.231;4.126
998.517;4.150
998.803;4.199
999.089;4.272
999.375;4.321
999.660;4.224
999.946;4.077
1000.232;4.053
1000.517;4.077
1000.803;4.150
1001.088;4.126
1001.374;4.126
1001.659;4.199
1001.945;4.224
1002.230;4.175
1002.515;4.199
1002.800;4.175
1003.085;4.175
1003.370;4.199
1003.655;4.102
1003.940;4.224
1004.225;4.419
1004.510;4.419
1004.795;4.321
1005.079;4.248
1005.364;4.175
1005.649;4.175
1005.933;4.248
1006.218;4.297
1006.502;4.297
1006.786;4.224
1007.071;4.102
1007.355;4.053
1007.639;4.126
1007.923;4.126
1008.207;4.102
1008.491;4.199
1008.775;4.297
1009.059;4.248
1009.343;4.102
1009.626;4.028
1009.910;4.077
1010.194;4.199
1010.477;4.224
1010.761;4.175
1011.044;4.199
1011.328;4.272
1011.611;4.248
1011.894;4.199
1012.177;4.150
1012.461;4.150
1012.744;4.102
1013.027;4.053
1013.310;4.028
1013.593;4.053
1013.875;4.175
1014.158;4.150
1014.441;4.053
1014.724;4.028
1015.006;4.102
1015.289;4.126
1015.571;4.102
1015.854;4.175
1016.136;4.199
1016.419;4.150
1016.701;4.077
1016.983;4.028
1017.265;4.077
1017.547;4.053
1017.829;4.102
1018.111;4.199
1018.393;4.224
1018.675;4.150
1018.957;4.175
1019.239;4.175
1019.520;4.126
1019.802;4.077
1020.084;4.077
1020.365;4.126
1020.647;4.248
1020.928;4.297
1021.209;4.199
1021.491;4.150
1021.772;4.150
1022.053;4.663
1022.334;4.687
1022.615;4.419
1022.896;4.224
1023.177;4.150
1023.458;4.102
1023.739;4.053
1024.019;4.028
1024.300;4.053
1024.581;4.102
